INDEX VERSION 1.131+C:\Users\ramannpr\support_works\rajan-java-springboot\.metadata\.plugins\org.eclipse.jdt.core
3804311065.index
2198380624.index
3395646240.index
2988535940.index
2639784151.index
2078913668.index
972511311.index
1368781377.index
1378370250.index
1438094755.index
1185814170.index
3235810014.index
837339289.index
4026924955.index
1194299359.index
2322766417.index
332552512.index
3324278907.index
1423314316.index
3627713479.index
1805612800.index
3113459258.index
1215362522.index
2770594785.index
1758900054.index
258828259.index
1218872358.index
3116846752.index
1253441553.index
2849516904.index
2985574562.index
1827967021.index
4174907092.index
2330436942.index
2416067767.index
2785132174.index
4063562878.index
2099293024.index
1285544063.index
3364335697.index
1886959104.index
1441918778.index
1238623672.index
1098164584.index
1122211196.index
3719704730.index
3005716664.index
3902746089.index
2167675953.index
147975822.index
273907884.index
1367400509.index
3142294503.index
662121034.index
2732951873.index
2915718050.index
3651360691.index
464855731.index
159995511.index
3390113449.index
4072707551.index
1428256770.index
1458409927.index
3967280502.index
1434590085.index
2620650766.index
3651030417.index
1575816604.index
4141541229.index
2352970394.index
446937105.index
3211773916.index
813966927.index
3844772694.index
2809423333.index
2930607086.index
1281337094.index
2909032549.index
847112309.index
655375146.index
4237426067.index
2986274923.index
1989775971.index
3397293651.index
446869445.index
1843123581.index
61005782.index
1650732884.index
309072976.index
4208017447.index
1657313049.index
2564154321.index
4057192102.index
2168459144.index
2915072775.index
1760445989.index
2308686259.index
2696265195.index
3791944662.index
1020184470.index
486212650.index
408636434.index
1312212905.index
626710361.index
3370275585.index
3173217000.index
3163738933.index
3572692575.index
2716349655.index
77503774.index
2242319021.index
2088757168.index
2297570269.index
1501655495.index
1892195776.index
1709371982.index
1315345580.index
924709048.index
1856369856.index
4263261468.index
2993766507.index
1707860295.index
3862945460.index
3706558909.index
4097978803.index
14993140.index
2818058632.index
2513897111.index
465150192.index
2832459767.index
3511723715.index
4226891476.index
3732731303.index
4010656398.index
3723013793.index
1895447923.index
1956158391.index
2741718297.index
4140093956.index
1876401774.index
2950603888.index
3585466628.index
3017227148.index
4088453328.index
3622083984.index
1214367305.index
2642397326.index
2112741047.index
2113936344.index
2774883217.index
1508738211.index
362354178.index
962547040.index
3196848607.index
551207607.index
1918927979.index
2104390034.index
1158433969.index
1977404907.index
1419448636.index
2839386746.index
262584783.index
454746360.index
3620115189.index
63419949.index
1450648637.index
1582025922.index
954156428.index
2970272929.index
3336886664.index
3622408184.index
4222271864.index
655150828.index
4010566227.index
3244034644.index
225032474.index
1028419663.index
4150289628.index
1190131727.index
2568692430.index
4020449950.index
4052862817.index
1846372471.index
3722966287.index
2888320249.index
2836531989.index
2105638721.index
3447939360.index
1084772038.index
2229980189.index
374393369.index
3799446350.index
4160935439.index
1575463539.index
1353222841.index
385337418.index
689502246.index
33676441.index
2398531443.index
3201819475.index
3341178284.index
