INDEX VERSION 1.131+C:\Users\ramannpr\support_works\rajan-java-springboot\.metadata\.plugins\org.eclipse.jdt.core
1972697557.index
3844772694.index
2639784151.index
1515444387.index
2078913668.index
1438094755.index
1185814170.index
847112309.index
398852022.index
890392424.index
1194299359.index
2112741047.index
332552512.index
3397293651.index
3515129874.index
2113936344.index
2774883217.index
551207607.index
2104390034.index
1977404907.index
2839386746.index
1419448636.index
1827967021.index
454746360.index
2696265195.index
3791944662.index
4063562878.index
986730341.index
3364335697.index
2676596651.index
1122211196.index
3141256530.index
4222271864.index
1614806129.index
3719704730.index
4150289628.index
2716349655.index
2242319021.index
2088757168.index
273907884.index
1367400509.index
3664434139.index
2105638721.index
3651360691.index
159995511.index
1315345580.index
2993766507.index
374393369.index
3799446350.index
4160935439.index
106914297.index
385337418.index
689502246.index
2620650766.index
33676441.index
2818058632.index
3201819475.index
1575816604.index
3662550970.index
4226891476.index
2507475985.index
3732731303.index
3962763584.index
1368781377.index
1378370250.index
1876401774.index
837339289.index
1214367305.index
1989775971.index
4026924955.index
3324278907.index
446869445.index
61005782.index
309072976.index
1158433969.index
258828259.index
1218872358.index
2168459144.index
1225148049.index
2532292776.index
2416067767.index
3336886664.index
1238623672.index
1312212905.index
3622408184.index
626710361.index
408636434.index
3173217000.index
3370275585.index
655150828.index
1441918778.index
1190131727.index
2167675953.index
1846372471.index
2836531989.index
2169407369.index
662121034.index
2732951873.index
1501655495.index
464855731.index
3390113449.index
924709048.index
262629720.index
1495270895.index
1575463539.index
3862945460.index
3967280502.index
3706558909.index
1655230666.index
4097978803.index
3651030417.index
2513897111.index
4141541229.index
362199794.index
